1 3.3765292832467924E-03 -3.2433498831846674E-01 2.5774301835994096E-01 1.5706216959234467E-01 -2.8501966146052576E-02 -1.3062836545757084E-01 -2.5544821298277770E-01 -2.2394157927950759E-02 -2.2726044880184559E-01 2.1119405584801576E-01
2 -2.7680723423677739E-01 -8.8853590438230060E-02 8.9369487034370969E-03 2.6156228930035792E-02 4.1812597191855316E-01 5.1202852504609320E-02 2.5579880530324905E-02 -1.3592955043268542E+00 -8.4610021582517000E-02 2.2867149465923635E+00
3 6.7174162708223198E-03 -2.5884689471956435E-01 2.0103793196367487E-01 1.2057998059892230E-01 -2.6422270280686857E-02 -1.0209063700873261E-01 -2.0544935011289489E-01 -2.1232572922456075E-02 -1.7919250463911499E-01 1.6976887209410965E-01
4 -7.2791934527807994E-04 -2.5504148066477911E-01 2.0602811433273283E-01 1.2925022689079529E-01 -2.4799452713684778E-02 -1.0733908511671782E-01 -2.0726662644947083E-01 -1.9900376116438977E-02 -1.8131645346102288E-01 1.7362602215179523E-01
5 6.3096756566741992E-03 -3.2345390534344864E-01 2.6190269840539149E-01 1.5591107039138916E-01 -2.7663141827478938E-02 -1.2825678295753645E-01 -2.5261869426190814E-01 -2.0221237032695450E-02 -2.2475523993328875E-01 2.1673362882329361E-01
6 -5.7522538354780928E-01 -9.3789000835028793E-02 7.9248961485438460E-02 3.6771371513357703E-01 -1.1910309561517405E+00 -2.6052456246170228E-02 -2.8495843751487660E-02 -1.9912906598265925E+00 4.7386423377186000E-03 4.5949514847027295E-01
7 2.7357786217397373E-01 8.4141228764090803E-02 1.4020128846072531E-02 -2.4667362615409281E-02 4.0014758515735660E-01 -1.6689163063369161E-02 6.2264709383902467E-02 -1.4660719213562148E+00 -1.7254049448834931E-02 9.5132898732930704E-01
8 2.3519427838056836E-01 1.9848622789509798E-02 2.6176628489561854E-01 -1.7867317559805604E-01 3.8440792375203625E-01 4.3124418013823690E-02 4.7247432519616744E-01 -2.8988916884238241E+00 -4.8077947090804118E-01 5.6846045074418061E+00
9 -1.4504376698307244E+00 7.9204777495393095E-03 1.2693446645343170E-01 -1.7316236357703307E-01 2.9935925243477546E-01 1.0907408146946146E-01 -5.5510710538900243E-01 -2.4480561356606008E+00 -1.1305531662510715E+00 5.4457560680324999E+00
10 -2.7722120889774882E-01 -1.0452498138038867E-01 -6.1270349174418023E-02 1.2535269333246815E-01 -3.8359710954557930E-01 9.1890178692231539E-02 2.9598829284348921E-01 -1.5511599997017758E+00 3.7536982673424354E-02 1.0603650470411802E+01
11 2.7003049715112709E-01 8.7647864701421357E-02 -6.7185003617682648E-02 -2.6913714368492969E-01 4.1729042334008354E-01 1.8616270427240081E-02 -1.4302384389498599E-01 -1.7240931026469346E+00 5.9135159621540458E-02 4.3725113223704835E+00
12 -4.0450985370360976E-01 -6.9765283005128603E-02 -3.2169065862325361E-02 -4.8653586087879652E-01 2.6480540562626231E-01 2.8268532716744253E-02 1.0664120699834643E+00 -9.5174925733043347E-01 -1.7680245950827894E-01 4.7364548484218627E+00
13 4.1095345651510101E-01 7.3801102326350065E-02 3.3114767050661414E-01 -6.5552630351723207E-02 2.8134690499256071E-01 -6.6594380464967962E-02 -1.6665782610868266E-01 -3.0665539882839514E+00 -2.3144457034854016E-01 2.6378226703871586E+00
14 -2.9470340122741440E-01 3.0568036435180385E-01 7.3062245407517920E-02 -2.5791533203653194E-01 1.2997908206831799E+00 -1.2143407442412864E-01 -4.5027504132238799E-02 -1.6100944267499364E+00 -3.6444067915308208E-02 3.3109694865235610E+00
15 -5.1443704133940149E-01 3.7773504606093805E-01 2.4396277757066753E-01 2.9952924762096589E-01 -4.9988376990587297E-01 -1.1120131095824688E-01 -4.7974332843348877E-01 -2.0539018091790089E+00 -2.2853935413124171E-01 3.8597256433920282E+00
16 -3.3297741444948781E-01 -5.2899423854482056E-02 1.4878053502119123E-01 1.2112339198167588E-01 3.0267746058127787E-01 3.8663973627154825E-02 -1.8439997157077617E+00 -8.1635037629058882E-01 8.0586302890547956E-01 3.4773254863459919E+00
17 -3.2169765562295743E-01 3.5761001042873486E-01 -2.4665078005213931E-01 1.5467963947296506E-02 9.1540861186913447E-01 -3.0266681682041946E-01 -5.6409527090086775E-01 -1.2277905985060900E+00 -1.2132066992773648E-01 2.2642450679272939E+00
18 3.1591578172440277E-01 7.2251230409934197E-02 -2.0387522404899311E-01 -2.2442591643896033E+00 4.0226738406213464E-01 -1.4830022988172775E-01 -9.2257115916656462E-01 -1.9969814110810966E+00 1.4221459618483268E+00 3.6886793192332585E+00
19 4.3775158377739731E-01 8.7140203454249887E-02 -2.1021229320746881E-01 8.5379635525246056E-01 -2.7448916296590647E-01 1.6095615272112538E-02 -9.8513488937825452E-02 -3.8211192342234881E+00 -2.9209175600726595E-01 8.0902863515246519E+00
20 4.0923483505185587E-01 -3.9389914500892298E-01 -6.1213041041917951E-02 2.2238382997635737E+00 -8.2664738280240913E-01 1.1293696334326231E+00 2.4629785989396774E-01 -2.6554509649408899E+00 1.0948789852073335E+00 6.8849381672699090E+00
21 2.9965222301332012E-01 1.9461607934661379E-01 -1.0206342162223905E+00 -2.5140549047009397E-01 -3.9398439601379381E-01 -5.1734632910652611E-01 1.4433462701075994E-01 -1.4802188209290681E+00 3.0963931356481100E-01 3.1987311904390556E+00
22 -2.0118854798102714E-01 2.8356502316953910E-02 1.1516789374647418E-01 -1.0341867837155865E+00 2.6112007229432249E-01 -3.9283469517878877E-01 -1.6366401839107456E-02 -1.8908956700098689E+00 1.0846655986323023E-01 2.2169445753965236E+00
23 8.5795598428288522E-01 -4.9994871928209805E-01 4.0170282546944219E-01 1.1378837658119692E+00 4.4751107616499441E-01 -1.8298180637642064E-01 3.6770392021160275E-01 -1.3369270632060570E+00 -6.6822391210435672E-01 8.1175179046578698E+00
24 2.4917209059722978E-01 4.2049559769144311E-02 1.2300245896889712E+00 -2.8496359123407431E+00 2.5410739615643047E-01 1.1048006236067687E+00 -3.0958312418732575E-01 -2.7972283859752261E+00 2.1611538745644392E+00 1.9474423094002076E+00
25 -1.0463466561663801E+00 6.8487224305166183E-01 3.2463750127790908E-01 3.9560860009116178E-01 -5.5392400390598273E-01 7.2685059398335986E-02 -5.3455858680154877E-01 -1.2211472895287427E+00 -2.3976840808743916E-01 2.3408193139866427E+00
26 9.5156188174781953E-01 2.0843403145865136E-01 6.1016246696407150E-01 4.2289692130315798E-01 3.9583363402652871E-01 -5.5813206570047041E-02 -9.2633834605221177E-01 -1.0142318065534901E+00 -1.1523331823739260E+00 4.6181181430093883E+00
27 -3.0073381182039927E-01 -7.3815340891080120E-02 1.8976628029641989E+00 -3.0920972016202017E+00 3.5789184838320820E-01 2.5387604090160742E+00 -1.5908689568825891E+00 -2.6725258269042054E+00 3.0029302652273975E+00 1.9710757851498080E+00
28 2.8539876937895498E-01 8.3767111881813145E-03 2.4993463344041567E-01 3.5252995563086975E-01 -1.2857697959208498E+00 5.4198489587265537E-02 -1.5670313155251381E-01 -1.2475685840402111E+00 -2.1077158412184957E-01 7.8240685082274011E+00
29 -4.4584661929003683E-01 -6.7486165353906100E-02 1.2518257263478303E+00 -3.0722384409545413E+00 2.1429754097823334E-01 1.1183185950900176E+00 -1.2838216406480785E+00 -3.7466118274025377E+00 3.6245865991462201E+00 2.0483897070708670E+00
30 -6.5835915492336039E-01 -3.2039112263535419E-01 -6.0583103993512899E-01 -1.0001250332959478E-01 -5.9153793350347539E-01 7.3475674988741080E-01 3.2949300924489788E-01 -1.8944527699097584E+00 2.6997604592167074E-01 3.0956311062495798E+00
31 -2.8263266326496383E-01 -3.1131953740157689E-02 2.0774788624063523E+00 -3.4725079650417245E+00 3.5445762003671988E-01 1.7685286344376816E+00 -2.2540629549836786E+00 -3.7802780095486557E+00 4.0378159632818100E+00 2.5897332491977347E+00
32 -1.1353151183558106E+00 -2.1871417921226563E-01 -2.9084402378504171E-01 -4.7621548768800998E-01 -4.3435445387159810E-01 8.2213009336876253E-02 6.2324477611196349E-01 -1.8961277663990082E+00 5.8280984522186607E-02 1.2799425612028728E+00
33 3.1571487512324120E-01 2.9791122229132622E-01 -6.8249197933964792E-02 9.9116052612473982E-01 3.3400468098406466E-01 -6.4835375251999039E-01 -1.0746858593872224E+00 -1.4397797303252104E+00 3.4845316200769894E-01 7.6777698206325180E+00
34 5.0413504077322768E-01 -9.9941422947627501E-01 2.5356240687845610E-01 -5.0229934908933893E-01 -8.7387048738095030E-01 -8.1005612456592957E-01 -4.8479360043167402E-01 -4.3991148504618014E+00 -1.6304424121805243E+00 8.0083293974773611E+00
35 -5.3731136198320728E-01 5.2650722970445085E-01 -8.4631481617839133E-01 3.2000421963860055E-02 5.7041088405195861E-01 -6.2219924181119719E-02 -5.6068497064921091E-02 -1.3261403162491194E+00 1.5203151252291871E+00 8.0136984731488674E+00
36 4.6258554716454664E-01 -5.6459054706747225E-02 1.2021541970147311E+00 3.6585768869776797E-01 -3.9530035006878878E-01 1.0663262345883489E+00 3.4367130380956340E-01 -2.5364215446871552E+00 6.8577815551802779E-01 1.3623572107088375E+00
37 3.1901462011971771E-01 4.5830976509834143E-02 8.8675652331936305E-01 -1.1177793876676876E+00 -4.5276780607382755E-01 6.4906076418368341E-01 -7.9584475089583040E-01 -3.9864302341189761E+00 3.0222325225125068E+00 2.2183035908297399E+00
38 2.9960639340750933E-01 6.3308073562974368E-02 1.7485438626092462E-03 -4.6159380166407293E-01 1.2074723462407253E+00 -1.2671814850289975E+00 3.3878142928115573E-01 -1.1586792818584646E+00 -9.5097438431495485E-01 2.6438088891736600E+00
39 3.3916637649504777E-01 -6.2706811497258719E-01 -3.7476216538089402E-01 3.0368440214085235E-01 1.7396545487047403E+00 9.2228142111081546E-02 1.1658470186710242E-01 -1.6917922319403962E+00 -1.8660282463777509E+00 7.8810196085356887E+00
40 8.7782424121028879E-01 3.6270022210296687E-01 -7.3767489123378260E-01 -5.5884550733290683E-01 -4.1593151561240344E-01 2.4455442976648201E-01 -3.5550214578908657E-01 -2.0667315918223874E+00 -1.0252785271236671E+00 5.0795971565936799E+00
41 4.9136884231367595E-01 1.3414581799230216E-01 -4.6684393673082622E-02 1.2212609524992786E+00 -7.2914109733682209E-01 -6.3692747035957686E-01 -4.6268532715087485E-01 -1.9708869234357889E+00 -4.7326228493166800E-01 6.0741062445761989E+00
42 -4.3386622811607856E-01 5.2031635279357202E-01 -5.7699712956195515E-01 -8.6196520892965700E-02 -1.4258524275943170E+00 3.6218551232681018E-01 -1.1734628148832589E+00 -2.1198204115781780E+00 -6.1915592935128272E-01 2.1233390968687278E+00
43 -3.6991641977902351E-01 -3.1257702265637072E-01 -2.9081149095979975E-02 2.4424849310027069E-01 3.8130213742009877E-01 1.7540648734361189E-02 1.4941762316527567E+00 -8.1398669810586699E-01 8.6128548895548751E-01 9.3854096531155662E+00
44 -5.4687483854548369E-01 1.6964447329186699E-02 -2.1127524991742841E-01 -4.5576395105807094E-01 1.0437085596920146E+00 5.7249332355540872E-01 -3.7023690518752916E-01 -8.8575160184525048E-01 -1.2615627065360122E+00 4.0248462176646322E+00
45 1.0655822841764013E+00 -9.1737087481732080E-02 1.5196006268489176E-01 3.2721716541001800E-01 -6.8851547405394287E-01 -2.9189352624008408E-01 2.5612710400367694E-01 5.2719428850578032E-01 3.7620932860272993E-01 1.2121143545577131E+00
46 -8.3710005443468671E-01 3.0203824617993424E-01 2.5190365808429420E+00 -2.9127179301616746E+00 -6.1539853193405669E-01 4.8140187645117655E-02 -1.3396163666255485E+00 -4.1364914570236140E+00 3.2184102994200416E+00 2.4020793515641436E+00
47 7.1007033167994760E-01 4.7851155198085649E-01 -3.0759308157472520E-01 1.9052965274824613E-01 -7.2113338106398650E-01 2.8419604528008002E-01 -3.0596064146439234E-01 -6.3962962091824194E-01 -1.1813720811192940E-01 3.6507993490671575E+00
48 -4.4021470398808571E-01 6.1362423784537878E-01 7.1024852044835296E-01 -1.0663717978890932E+00 -1.6052885633614871E+00 -7.3423404953391480E-01 3.0106370251418046E-01 -3.7504320436079897E+00 3.1679831136283640E+00 1.7868366118020942E+00
49 -6.9151763341815808E-01 8.0377318448602986E-01 5.9341883811195939E-01 -1.8753687057332619E-01 -1.1403542865067260E+00 1.6267377560391573E-02 -8.3382707914286969E-01 -2.2255498744364166E+00 4.6119367203851108E-01 2.9860713400497954E+00
50 7.9468997935568741E-01 2.9260905618890559E-01 -1.0795482082884909E+00 -1.4490307950006494E+00 -2.9057242372304148E-01 9.5809221226776298E-01 -1.2271106468090696E-01 -2.7770284846801427E+00 -1.1380973630793354E+00 9.4616330309668424E+00
