1 1 5.1216600373813426E-01 4.1962962679175438E-02 3.0012868851415485E-02 4.6643817634425933E-02 3.6630107976739594E-02 -1.1014781387448265E-03 7.9448866100179389E-03 1.3679485111100758E+00 5.1248779729361912E-02 1.9888538343001202E-01 3.2056096795607038E-02 7.7937683973872312E-03 3.1074300731303281E-02 7.8921285560062882E-01 -5.4425811364716380E-03 5.2385562479966015E-02 -3.6986334904713362E-02 6.5861971207476005E-03 6.2679418175202395E-01 2.3904668678717995E-02 4.5556723861237431E-04 -2.7898318155852746E-02 6.1397591919741412E-01 8.7950670713666940E-03 2.1387288677163718E-02 7.9462246001672368E+00 6.4599887521053431E-02 3.3782738823982088E+00
2 4 6.6795313943237111E-01 4.0071387299829586E-01 -2.1221480973986857E-02 3.8140967738824735E-02 3.4710407678002902E-02 -2.6586528931544246E-02 -6.9843040149675109E-03 1.3487541891589940E+00 4.6475654690002720E-02 6.1036058295066984E-03 3.0190162941091489E-02 4.9000222827787411E-02 3.2361682705249389E-02 -8.1001411382709831E-01 -1.6879852908783424E-02 -5.4118861645772329E-02 6.4823880093538164E-02 -7.9888651088126615E-03 5.1374391151173882E-01 3.0663032457875414E-02 3.0232807556883741E-04 -8.1582666835648449E-04 6.2149683488418916E-01 1.6322104688588364E-02 -5.6714325945341594E-03 3.9028459818609802E+00 2.0607781967368941E-01 7.1223905320560812E+00
3 2 5.1793081990068857E-01 4.5552768341310321E-02 7.8210862384420266E-02 2.0874608851677814E-02 3.5610160480295000E-02 1.1115095077607174E-02 1.7007278223971347E-03 1.1263134042376595E+00 1.4166642977218113E-01 3.9509875971753212E-02 5.6827848304394336E-02 1.9005219332893036E-02 1.6051425648053032E-02 6.6500409803407934E-01 -4.1251054639629567E-02 2.8013592311110717E-02 -2.8581691832144897E-02 -1.9492624115327612E-02 7.2908261758798754E-01 6.0972985257278782E-02 -2.9608036125052993E-02 1.1027019363758415E-02 -6.5936393595789555E-01 -1.9273436416405557E-02 -2.1044536605075867E-02 -3.5235990850756158E+00 -1.0790738369948891E-01 2.9548580649441982E+00
4 1 5.1196164771877228E-01 2.7464982755093625E-02 6.1846097500508422E-02 5.9997969772816732E-02 2.7645423062771096E-02 -4.1166806679033503E-02 1.6439891539340570E-02 8.0475916882218579E-01 7.1239233686345910E-02 2.3185919322388404E-03 5.8808988204357593E-02 -1.0364551255921173E-01 -1.2260085295456359E-02 1.4973071953855779E+00 2.2785703628169057E-01 4.7349591177744496E-02 1.1690619151195579E-01 -1.1305567739116418E-02 6.2566769035461611E-01 2.2132040688820465E-02 -8.8424058964129172E-03 2.7557509535810893E-02 5.9405753966644892E-01 6.0862548900335262E-03 9.3113651266698901E-03 4.0146017438767174E+00 -2.8333544648782700E-02 2.0397648552998874E+01
5 1 -5.2292392744196425E-01 -3.0981056152002664E-02 -4.4472127786977442E-02 -3.4030066448679966E-02 -2.3784554785790286E-02 3.2434130172560600E-03 -1.4333464073449775E-04 8.7645891805705234E-01 6.3304612881800656E-02 3.1010002057569448E-02 4.6333247497143001E-02 8.0989427421113876E-03 6.3146454043202377E-02 1.6464125381172359E+00 1.4964113031526607E-01 2.6983663333661711E-02 1.7318332374377302E-02 3.3410647844763552E-02 -5.9892138031016540E-01 -9.3578603822822640E-03 -5.8923894673163418E-02 -3.3456412121509224E-02 5.9800769612577931E-01 -9.5610220775169938E-02 3.5253972115779936E-02 2.2151925423621648E+01 1.9891298732241023E-02 3.6531651505155898E+00
6 1 1.3345528713231050E+00 2.3301110472376915E-02 3.6082298020016085E-02 1.7501110971515049E-01 3.8242442831805966E-02 4.3035183984417025E-02 4.3746860454142366E-03 5.0449235150898475E-01 2.1483496735471719E-02 4.9540610966051189E-02 3.1992229971178267E-02 -2.6144882526466604E-02 9.5338430265968863E-03 7.8930701880567222E-01 -2.6183674079993235E-02 5.3850833533006959E-02 1.5023776788268474E-04 -1.5982361905346118E-02 6.2756697919378734E-01 2.2314228781369891E-02 9.9502513582390983E-03 7.6264755566802817E-02 6.2545650660305319E-01 1.5482082933655862E-02 7.7166970284754822E-03 2.0540268681668703E+00 2.1377188100304704E-02 4.6970044206445776E+00
7 18 -3.6679519318329179E+00 -6.1096364505977638E-04 1.4452797105681259E-02 5.5781120475734561E-03 -2.4229134217615422E-04 -2.4134659162695479E-01 -1.4298939338017372E-01 -6.1993615366739852E-01 -8.5597807367592052E-02 -1.7449790363082756E-03 -1.5004542668025927E-02 -3.8634998620098593E-01 1.2002311134919713E-01 -1.0374993003109976E+00 -2.3005740000394549E-02 -4.2154031846533505E-02 -6.7870880790658838E-02 -4.4024149192641408E-02 5.4244260624907470E-01 3.4691619833493878E-02 -1.5032964708155641E-02 -5.4956985089253084E-03 -5.8074427200780476E-01 -5.3064826564896368E-02 -1.2394063909844318E-02 -2.5527218853534426E+00 -1.5803069448400325E-01 -3.5126318360404780E+00
8 4 6.4604677087705886E-01 4.1241773632626322E-01 9.4598794496431517E-03 4.7162642141175354E-02 3.6802067979017021E-02 -3.9084140544564890E-02 -1.2598246160639465E-01 1.2827463110502615E+00 3.8173555822778059E-02 3.8775375310822766E-03 2.6116256444201891E-02 -7.4265867004008387E-03 -2.8182912972073846E-02 -7.7772295798837288E-01 -1.4443200903390489E-02 -5.7534890147837393E-02 8.6325364627205248E-02 -2.7730140038775643E-02 5.1235532468812628E-01 2.8172441394820332E-02 2.6735549382094874E-02 -5.5255921015299705E-02 6.1601105578640258E-01 -8.3645322987183322E-03 5.3294971632352070E-02 9.3117708724135380E+00 9.0885846874976361E-01 9.6457239726707780E+00
9 1 5.0241971849511979E-01 1.0480857947151903E-02 3.2854191247801388E-02 8.0339880737018907E-02 6.8468546048048307E-03 -6.8857202953946416E-03 7.5156281188268115E-02 9.3846712271153732E-01 7.8610657768133627E-02 -1.6770112377706523E-02 2.6434914217839414E-02 -8.1427826524712851E-02 -1.3679668247001972E-01 1.5362599955400305E+00 5.5583100413509459E-02 5.8522341178773828E-03 5.2869245847513006E-02 -1.0219030546073014E-01 6.8289375050901424E-01 1.6722315633980307E-02 -3.0563516925781662E-02 6.7451138049600831E-02 5.7837586208455460E-01 6.7077021082374566E-03 6.3974110737058956E-02 2.1405843978302501E+00 3.4367308994482142E-02 1.5651150017138200E+01
10 2 5.1345286528212541E-01 3.8989921272225406E-02 3.8609561275362130E-02 3.7608037446238245E-02 3.6967940903816936E-02 -1.6591113710561420E-02 1.2240227410057604E-02 1.5071124451613325E+00 1.6908430870296295E-01 4.2232381019593458E-02 2.3077193807407782E-02 6.6253059830200106E-02 5.6568455014265592E-02 6.2387496349669758E-01 -3.0169261337218378E-02 1.6868243812599534E-02 6.5417230571354859E-02 -1.5014422715040257E-02 8.3548000037571779E-01 4.8224463532265512E-02 -6.2141005413442578E-02 -2.0626819229039819E-02 -5.7592473644049003E-01 -1.5567408294928455E-02 -5.4220566922122803E-03 -2.1929672887934260E+00 -4.5420366694040315E-03 2.0449588807377430E+00
11 1 5.6467426614447158E-01 6.6077876381763725E-02 3.1240427087301993E-02 1.2314361368433221E-02 3.8673285893020021E-02 1.5843654067993810E-03 2.2870401713686005E-02 1.8035313999394047E+00 3.6980983305218477E-02 1.2927606587248100E-01 3.6266376747554424E-02 4.1549065455705608E-02 3.8959692166242399E-02 9.6271628367330631E-01 5.7590186121225951E-03 6.0636598636659295E-02 9.6155549670928105E-03 1.6997506781937601E-02 6.1513016537511578E-01 7.4410485306147401E-03 -1.1383482415259362E-01 -8.6810463021150443E-03 6.1789667750421307E-01 1.1818163568898907E-02 -4.1070640302169927E-03 5.8936365206743062E+00 -1.9942231342926133E-02 1.8490224390255814E+00
12 1 4.3885483626172639E-01 1.3542368569390520E-02 3.2332635817339812E-02 7.8635747688134930E-02 2.3781954929962237E-02 -3.9136799948049431E-02 -9.5371182809418698E-02 9.1446083755747443E-01 1.6895955021077887E-02 -3.8238812089653171E-02 1.3976692870127908E-02 -7.5507939084585557E-02 6.6964548600391999E-02 6.7303229949902132E-01 9.5675530145728892E-03 4.3044064278606478E-02 1.4905651840798823E-01 -5.2877707791591393E-02 6.6821924138770250E-01 3.9859879800851317E-02 3.8363530226182684E-02 -6.8572978939703377E-02 5.2144346777624195E-01 7.5125917641551600E-03 1.5267330956591555E-02 5.0062606176885600E+00 -1.7626046413398933E-02 1.9197446723814382E+00
13 1 -5.0163654772011823E-01 -1.9374832034683674E-02 -3.0515489897214958E-02 -5.2533438416133713E-02 -4.5765901200564126E-02 2.1201960334322301E-02 6.2557800174554687E-02 7.3340797288227999E-01 6.3656817756311102E-02 -2.6783734255666804E-02 6.8393056540244385E-02 1.0540433082277632E-01 -4.4595289628028410E-02 1.0308755125809481E+00 1.7207742325054837E-01 5.0167851196812725E-02 7.3427769308200372E-02 -3.9974433453102254E-02 -6.4606400502994177E-01 -5.6966745057185825E-02 -5.6910638152683178E-02 7.3876579086955940E-02 6.0813931960687451E-01 -1.4756419184868672E-01 -5.8488816596361827E-02 1.7719257930187659E+01 -4.0879322441122322E-02 2.6507135411592988E+00
14 1 5.5644426655065626E-01 2.8192753113052079E-02 1.0655809844546131E-01 -4.3232934363252623E-02 3.9805522461114289E-02 2.0301545028176046E-02 1.0787193678254222E-02 6.5814926887097636E-01 -3.3438901700081257E-02 1.7010954922773575E-02 5.7468096431556627E-02 -5.1916788929851611E-02 -7.3920583618763011E-02 1.0587472281517902E+00 8.9562417281807888E-02 2.9116551217636538E-02 1.1904468589095087E-01 -1.6631010877792535E-01 6.2712011656043820E-01 8.2306709901104197E-03 1.5096673157799400E-02 3.5548797509896868E-02 6.4929169343906423E-01 9.9721089687678552E-02 1.8646837819448769E-01 1.9485127538035905E+00 1.2432912557953543E-01 1.2582478271803986E+01
15 4 6.5294894908729972E-01 3.2446637156579755E-01 9.5994103872050610E-02 2.2438537356290079E-02 4.0423987131764726E-02 -1.5542917572921114E-01 -9.8275637369918026E-02 8.9540722097007452E-01 9.0500402714902228E-02 -2.1320165724726593E-02 -2.6050216247366177E-02 1.4117630459819835E-01 6.1839793510928803E-02 -6.2527127225202661E-01 -1.6638943882667769E-02 -6.4592733152800619E-02 1.8770777032471064E-01 8.2853897020043352E-02 4.4085988790091429E-01 -1.5802189423005677E-02 4.3708807623190550E-02 1.2438717065935166E-01 5.0380326352546922E-01 1.6613501654544456E-02 1.1939059482208503E-01 3.2677033968912843E+00 2.7399514290339455E-01 5.5962482132131619E+00
16 4 6.4994186087707284E-01 2.1636211980450823E-01 5.0701631468393786E-02 1.2953680229168052E-01 1.0170789175570856E-01 -5.8127024575958426E-03 -8.5980756425395086E-02 9.0667463665383596E-01 1.4494881974244783E-01 -4.1146031972582485E-03 1.4280788361878166E-01 -1.1576140100973756E-01 6.8480054430567747E-02 -6.5180420802412020E-01 4.7212934080611495E-02 -7.7430556842783646E-02 1.1869954647132092E-01 -1.0551301827306912E-01 5.0843120028698741E-01 -8.4105838317913906E-02 2.7175873221263372E-02 -3.6229680497631506E-02 5.6881596343248930E-01 -1.4509087247757458E-03 8.7806858990817443E-02 7.3384364963926760E+00 6.6639826889323206E-01 7.8135841311031955E+00
