1 -7.6953218809631874E-01 3.0927104932504296E-01 1.5017472981580632E-01 2.3058680484705690E-01 -9.8444036540729973E-01 5.1705859445010605E-01 9.3154924264893732E-02 -6.3431781350691152E-01 7.8144399484131197E-02 4.7826137750792652E-01 5.2948352222570161E-01 -6.9131548338135573E-01 2.6560454435888203E-03 -1.0766902826838256E-02 -2.6998385714547274E-01 3.5071653685277218E-02 4.9103871749173800E-02 7.9052763603474786E-03 -8.3044758376788156E-03 5.7235896045175233E-02
2 9.9120845615203501E-01 -9.3456676991591658E-02 -5.4610308330020792E-02 -7.0391179968481676E-01 4.9897001301955829E-01 -8.4208799228182515E-02 -2.1676393678419498E-01 4.9212816096397594E-01 -6.5042265316932718E-02 -4.7649541826153496E-01 2.8505436467951623E-01 2.8396178462780082E-03 1.7733698506099196E-02 -3.3014985875877673E-02 8.6288426196716700E-02 1.5207832767704262E-02 -2.4710808197376819E-03 -4.2764971267398234E-02 1.3618221708234369E-02 6.3979515888069691E-03
3 -9.9878177287557834E-01 2.7161386050531017E-01 8.7238830510103227E-02 8.3874979113302592E-02 -7.9733950347950666E-01 1.1702389164423985E-01 1.4614019596442010E-01 -5.1613949063677067E-01 7.3554500802565828E-02 -4.8276377136747517E-01 1.1329564140163744E+00 -2.0702822392527884E-01 1.4955270787250423E-02 -1.6473302152468363E-02 2.5206107924231141E-01 1.8230014564899143E-03 -8.5681939618788602E-02 -1.2662936082739809E-01 -1.7404923114994193E-03 3.6576754054976457E-02
4 -8.6730577020822908E-01 1.6732103850359295E-01 4.6081178853684523E-03 1.4189955801815113E-01 -8.8507514987223468E-01 5.7418283459914987E-01 5.4082649015354214E-02 -5.5502866809740103E-01 2.5845326637683755E-02 5.2282504325651336E-01 -6.8942835220599974E-01 -8.0037706077534590E-02 6.2458325918033540E-02 -2.8706197648571827E-02 -1.3541395759704219E-01 -3.5762525221601477E-02 -1.4214919221371951E-03 5.9263265607704417E-02 7.8279460887609661E-03 6.9001390135641745E-03
5 4.5405332274003127E+00 2.3914081114326860E-01 -2.9994621162610799E-02 -6.9650548093805009E-01 1.6957338209166797E+00 4.3215013256381316E-02 -2.5030531201750655E-01 9.9423036727746172E-01 1.3080616294691780E-01 -1.1996158311731220E+00 -8.8282838548550435E-01 -2.4648154075531425E-01 1.7952233399584291E-02 2.1700610353523265E-02 -7.7739230348737931E-01 -9.8720869463658822E-02 -2.0400232723817888E-01 -2.7034156730167458E-01 -8.3851088487896491E-02 -1.1419550438825891E-01
6 1.5042911110861310E+00 -5.8729242258479120E-01 -2.0270226619652576E-01 -9.4978895967620228E-02 1.5372286707892358E+00 -7.8813653678744641E-02 -1.3243245899781339E-01 5.3220067360724022E-01 -3.7230183372378087E-02 6.0220079508456359E-01 -2.4065543030276273E+00 5.6208107506144700E-01 2.4226407702543967E-01 1.7086057215299716E-01 -3.7564412562444172E-01 7.6482200606880060E-02 7.0299438605273018E-02 -1.1919678581830138E-01 1.2157460336579155E-02 1.6806455361695663E-01
7 -7.9492755510263691E-01 1.2056547039786786E-01 1.7042555897300540E-02 4.5683335666658104E-01 -5.1505127251011329E-01 2.0571569774329401E-02 2.1623228426609262E-01 -4.5557904485700684E-01 -6.1978020482893409E-03 4.3077587556946939E-01 -2.5543523576721994E-01 3.5150135951111459E-02 -8.9075283245543639E-03 3.4604382844775419E-02 2.5029124173964159E-02 -2.2880755566980718E-03 3.1424188210171762E-03 2.5527369904562783E-02 -9.4242796295064611E-04 -1.0193548468798138E-02
8 8.8191889794449840E-01 -5.8638485436524238E-02 -9.4791645832336763E-02 -1.5215084004185359E-01 6.5434676261904401E-01 -2.5377595051420210E-01 -1.7201962063834772E-02 4.1229837518019274E-01 -5.8145207540115915E-02 -5.9206559111960755E-01 5.7113389142239857E-01 1.8330525388266536E-01 -2.7560947094495644E-03 9.7093701071678112E-03 8.8252068230502259E-02 -2.9497695877779950E-02 -2.6715837274550847E-02 1.8525270369519176E-02 1.8642765138783531E-03 -4.1294047847750918E-02
9 -1.2604933999949754E+00 3.5133973097810250E-01 6.4758438369437218E-02 7.7727340869432712E-02 -9.3221371484031956E-01 2.4803795725016684E-01 9.0508247462240052E-03 -3.6387301318611742E-01 1.0432486648914145E-01 -5.3056155135339977E-01 1.7879142984345786E+00 -3.3750797709269842E-01 -7.5772833466616271E-03 -7.9333996555518510E-02 2.1693649227937151E-01 -9.4258610290608988E-02 3.6904576553090103E-02 -1.0477692574126921E-01 -1.0993709269855250E-02 7.7847037455405527E-02
10 -5.8812791486835947E-01 1.8843625137172385E-01 7.6881161697787179E-02 8.8094456754754982E-02 -8.5692981467973894E-01 3.6763607087614503E-02 5.6991921972015880E-01 -1.8934952041137059E+00 2.9544491991417746E-02 4.5375659765317200E-01 -1.2683482916162581E-02 2.5408152490015830E-02 9.7829505825548051E-03 2.0530536013571199E-03 4.7444093965130475E-04 1.0370139116512292E-02 -1.6630228407729410E-02 -3.3924570666181235E-04 3.2667205868017350E-02 6.4601963780152359E-03
11 5.6576858645665506E-01 8.5845141717339757E-02 -2.9492289973485608E-01 -4.2678037867211270E-02 -1.7585157744656774E+00 1.1767196635324159E-01 8.0971958220244611E-01 -8.3785241505957231E-01 -6.1966444035563353E-03 1.6974343223850632E+00 3.5197984003257757E-02 5.3972958213835333E-02 1.2209098742396032E-01 9.3176915070928498E-02 5.8841977295433646E-02 -2.6082307273670495E-02 -1.1994882750082260E-02 -1.1881019587605073E-01 -7.8637881415572763E-03 1.9987985274364455E-02
12 6.3319534769023322E-01 -7.6761387848721288E-02 -6.3002489401809886E-02 -3.5587830665317283E-01 3.9572080130530746E-01 -3.9004572535029321E-02 -1.4503430517254889E-01 2.9877291734324868E-01 -6.2127428641789682E-02 -3.5482696806192315E-01 2.0331066851329324E-01 8.6028097729558009E-02 8.2757563702880090E-04 -2.6186306933620541E-02 -7.7196553016809152E-03 -1.7489970718177301E-03 -2.1071557673557395E-02 8.3485484080036490E-03 5.8066071670809585E-03 3.1476652365527977E-02
13 -5.3947212785348475E-01 2.8342954185200669E-01 4.5791355072967783E-02 -5.0572797602757326E-02 -8.3509401487459034E-01 2.6533944043720936E-01 5.7378036270105204E-01 -5.2846256155404943E+00 -3.3857518519038979E-03 -4.9533885756587981E-01 5.8814559439722872E-02 -6.5078651053187310E-03 8.5834081622770020E-04 6.9574624302230683E-03 3.5812100562882178E-02 4.2979336230218823E-02 1.3934775693306655E-02 -2.3187329493011481E-03 -4.7665858186104705E-03 -2.7802690382553600E-03
14 -7.4018905796005263E-01 -2.7061586100085754E-02 1.1685635478670919E-01 1.2317640667707197E-01 -1.4105495179675951E+00 4.5777314698300278E-02 1.1716531680365647E+00 -6.2398584089194931E-01 5.7289952355839655E-02 -5.1955599665399999E-01 4.5600715727264202E-01 1.0857761550493429E-01 8.3568374468142668E-03 2.6300900015425368E-03 7.9558375600272735E-02 3.1125765000354112E-03 -6.1112001580241673E-03 -5.4583037189297474E-02 1.2514092668359706E-03 1.1739501437023899E-02
15 6.2410127378690605E-01 -8.6209542607701098E-02 -2.6795567682774440E-01 -6.0986213464676448E-02 1.4770857247443892E+00 -3.0518180045675029E-02 -3.1363253452754342E-01 4.9976834331571279E-01 1.0396926777395818E-01 -1.2718155552114150E+00 4.1952423998045169E-01 -5.0615814312193072E-02 8.3896152966894247E-02 -2.7666811378647113E-02 -6.1909327613361161E-02 -2.4340236863816429E-02 -1.8021909089045267E-02 -1.1161397816526107E-01 8.0856820616380581E-02 1.4949704045087929E-02
16 -1.1380575712278174E+00 2.4539955799033328E-02 -5.0501332366287913E-02 2.9134213529069158E-01 -2.0750304798083401E+00 1.7529851179453699E-03 1.9801180251917863E+00 -6.8658177822794553E-01 6.4454311434260364E-02 -5.2203203045231394E-01 4.6574352652234718E-01 -1.4493660794415691E-02 -6.6060469142572879E-03 -1.3853023329749709E-01 1.8106412046386428E-01 -2.7755255162585767E-02 -1.9514053595202797E-02 9.4013191142378431E-03 2.5021903276097057E-02 -1.1230653492201068E-01
17 -1.1992639484871861E+00 6.0247852545379281E-02 3.8639904597389307E-02 9.1648632683763409E-01 -5.8936327570583702E-01 8.0663232404233676E-02 2.4244802692920719E-01 -6.5287951661401478E-01 6.3725792207757509E-02 5.0285018125480019E-01 -2.2843301852344236E-01 -6.5915179342607585E-02 -2.8606288711526696E-03 1.6632810999674083E-01 -8.0880841819194818E-02 -8.6690169303714395E-03 -4.4124685552168943E-03 1.4009454028994013E-02 -5.5234523989971217E-03 -1.1112040261010936E-01
18 1.3369428584392107E+00 1.0058900302842962E-02 -1.0838312885307249E-03 -2.5913451210095528E-01 6.0962783134021836E-01 -5.1585714728366608E-02 -3.7291609121922425E-01 1.4212724745597187E+00 -1.3948045396850624E-02 5.3388056691668495E-01 3.3891543006164587E-01 1.6522444624587249E-01 6.6441557623074285E-02 -3.3372093796896145E-02 -1.0175049873133148E-01 4.2045879047511066E-03 -1.9735343087261513E-02 -2.5848935300607306E-02 1.2629612580333953E-02 5.2773934635616603E-02
19 9.1325015811402688E-01 -3.6190249704354069E-02 -2.0812832388598279E-01 -3.7329254391116401E-01 4.1115754581197184E-01 -2.7444758574357457E-02 -8.4497433671968908E-02 9.9017405821828641E-01 -1.8015105266407716E-01 -5.3689238915287962E-01 9.7420435977116526E-02 6.7195657345639537E-02 -2.3740442181805890E-02 1.8667029948459724E-01 -3.8874301234491669E-02 -5.1820566177217808E-02 2.6072149755455166E-02 -7.3881069264071383E-02 -6.3297002188306598E-02 6.0132208997632303E-02
20 6.8809597591152105E-01 -1.4539511164558247E-01 -1.8850039171982375E-01 -4.4712318775105031E-01 -5.2040640809466598E-01 1.1393107976626682E-01 -5.8035517968737710E-02 4.7677794403722817E-01 1.1310060785841697E-01 -1.5651734530081320E+00 5.4764464305864756E-02 1.8776734611933671E-01 -2.5321821833039382E-02 1.0427160094628589E-01 3.3576602134786958E-03 4.6253317190270718E-02 -2.8442223141191374E-02 -1.1409974619776803E-02 2.4880623423752461E-02 3.2021065117105513E-01
21 3.0253388507205154E+00 4.5926127282648943E-02 -3.6526455773363137E-01 -2.2912509488360217E-01 -7.0015682331868978E-01 2.0023296592484724E-01 -2.9825363735485466E-01 5.1962896409867521E-01 -4.0339679593463039E-02 1.4517826425126630E+00 4.1186206687513888E-01 3.6351675392805727E-01 -9.6864806171291385E-03 -1.4649631206588357E-01 -1.7365400255478503E-01 2.5417238237732781E-01 -1.3164945590780488E-02 -6.8331827725985950E-02 9.3474944852598579E-02 -1.7798330219529768E-01
22 6.3225927963535467E-01 -7.7146660740472728E-01 7.0689554996579418E-02 3.8413270989847689E-02 1.2174240541647574E+00 -3.0078192420476629E-01 -3.9213484617564337E-01 -4.5863358166873791E+00 -2.0555483020355814E-02 -5.7408885083855155E-01 5.7956674111232183E-02 -2.3046804744095255E-02 -8.9467774380824951E-03 2.0764551681176892E-02 5.8779992374426451E-02 2.0135114525017006E-01 2.1862098534512642E-02 -5.9594872331361209E-03 -5.0644060345952239E-03 -5.7288051308464769E-04
23 -3.4115143354564084E+00 -6.6226488758155955E-02 -1.5413237335602772E-01 3.3665791588182375E-01 6.9950145618894966E-01 -4.8576605921508570E-01 -4.4361452474153386E-02 -4.5580172073160102E-01 -3.5542873380951918E-02 -9.5402212457213798E-01 2.5645802458950269E+00 7.7681161315352543E-01 -8.5636034754011756E-02 2.7263638749458964E-03 1.2486786883883658E-01 -6.5211763746390164E-02 -9.8272569876700477E-03 -2.0011989091305884E-02 -4.4200366971378517E-02 8.2151321747771060E-03
24 -1.1105246378287774E+00 1.2553821420778254E-02 2.9025557898939323E-02 2.0426363037963444E-01 -4.9872480634126526E-01 5.8530725143198924E-02 1.4273188420929719E-01 -1.1077066104063304E+00 -2.3689390419139700E-02 -4.6270004452830649E-01 -2.8740584251447587E-01 -1.2523267706562982E-01 -5.6364670246640831E-02 -2.0069634624193481E-02 8.6291241688970691E-02 5.5077032728860159E-03 2.3024298514054346E-02 2.7496374895603356E-02 -9.1780721918311627E-03 -3.5385023251274218E-02
25 8.1924122536782817E-01 1.4333778663698848E-01 6.8685041875013826E-03 -1.0633582763316048E-01 4.9253287838913418E-01 -5.9174400269599416E-03 8.6578174088004264E-02 -4.2094330784139228E-01 -2.9925684699414670E-02 1.4651459579968764E+00 -1.1084415329693111E+00 7.3039779419964659E-02 2.0919722090756803E-02 -6.5153356995721473E-03 -1.5075638871428529E-01 4.7535217454547238E-02 -3.9336392764014478E-03 -8.3404692693912180E-02 2.6524020958236232E-02 1.3988878114930495E-02
26 1.3678701830339350E+00 -5.6045525285166153E-01 -1.8238987791702760E-01 -2.3734510246194784E-01 1.6983996558115084E+00 -9.7652528197813326E-01 -3.2508686896849319E-02 1.0173990242091728E+00 -1.4377859019711525E-01 -6.5082064032609654E-01 -8.8701639433068413E-01 1.1735074172664970E+00 -1.0074376633799148E-01 7.1542181229116278E-02 4.4246686757411158E-01 -8.3944474697719734E-02 -1.0902587286077974E-01 -2.2578507976581053E-02 1.6946226157916220E-02 -1.5410170848060451E-02
27 -5.8763893562984126E-01 1.1088455186887299E-01 1.4035174719064977E-01 3.2790433887050496E-01 4.8336650669612879E-01 -1.0003712807076236E-01 5.8745624691181456E-02 -4.4210778184310107E-01 -8.3573407329374419E-02 1.2494313136440840E+00 -4.0092534090509641E-02 -1.2690674746770086E-01 -8.1370557697291891E-03 -5.0996146454943270E-02 1.6106198964290625E-02 -4.4784278414356685E-02 2.2420691442962375E-02 2.6443081173025112E-02 -3.3841841272592030E-02 -2.3137374814613224E-01
28 -5.0486479086185576E-01 1.9817085081997421E-01 1.0549512458419323E-01 1.3043019328908231E-01 -6.1685229209875903E-01 2.8944299961927200E-01 3.6234215597122241E-02 -4.3230700925447557E-01 4.5773257872624158E-02 3.0015816436474735E-01 3.3668398646384140E-01 -4.4576265111914554E-01 4.0453849733764001E-02 -7.3143513333287274E-04 -1.9766888734871663E-01 -1.7457083892949664E-02 5.2729512713222751E-03 -1.2791912466839800E-02 2.6840493326236144E-03 -6.6820505365613250E-03
29 -5.5332359706490997E-01 1.3467500877557448E-01 2.8115334232166667E-02 9.6601152177316379E-02 -5.7643573993786301E-01 3.2977081499053218E-01 3.5795172850077737E-02 -4.1222493409256433E-01 2.9464431926393350E-02 3.2000415349522043E-01 -4.0590221717307096E-01 -6.0529135438173023E-02 3.3944526957414636E-03 -2.3853878868407103E-03 -1.2624428692409265E-01 -2.2535584917058787E-02 -3.5986391020363401E-04 2.7084856809815226E-02 -2.3737833159915883E-03 7.4635695330756589E-03
30 6.9858035870608093E-01 -2.9530891522769259E-01 -1.0315867697215694E-01 -1.6219438669405253E-01 8.6450859580202211E-01 -4.8884861765622828E-01 -9.7007988818226254E-02 6.1563190212201546E-01 -6.4541522384675407E-02 -4.5702359383009622E-01 -4.7487288332859923E-01 6.5311572116243199E-01 -5.2515052945190391E-02 -1.5168886102085118E-02 2.4749898106410426E-01 2.0233568389050969E-03 7.1649277954793957E-03 -1.2010597116436695E-02 9.4835790777918778E-03 -2.6541943297930418E-02
31 4.9379258032157397E-01 -2.2538756365400262E-01 -3.4818891750610322E-02 1.0349198483878920E-02 6.6473636143904657E-01 -1.9616223759040191E-01 -3.3879730004019537E-01 3.9115889526238132E+00 -4.0190817836762184E-03 3.6595016737603497E-01 -3.4985625046741152E-02 -1.5426665795147888E-02 2.4862279776619433E-03 8.2960340916714888E-03 -3.7687652567807955E-02 -2.8627842059525729E-02 -1.5437845770317657E-02 1.9573179278894433E-03 3.4428381883081153E-03 2.8335116161164769E-02
32 1.7532613744281569E+00 7.3445681560168660E-02 -1.5424934755703142E-02 -1.9724839766261915E-01 5.7242179686193062E-01 -5.9817389514180384E-02 -1.0197491558280564E-01 -1.0487840056384090E+00 4.9046998221432624E-02 -4.9802470066861149E-01 -2.6360880444662556E+00 1.4371976682663212E-01 -3.4325441614792472E-02 8.0879728183401965E-03 -2.0175523746333360E-01 -1.4552953120734874E-02 5.4771293854907713E-02 -1.6226092891592786E-01 3.6719996247526962E-02 4.1908159051363678E-02
33 6.5076594152546618E-01 -1.4550967025297101E-01 -1.8431797620902426E-02 -9.9109426855639615E-02 6.5324487744380344E-01 -3.8533027079514803E-01 -2.7925135725373178E-02 4.5571612699313846E-01 -2.8416170549059639E-02 -3.7902748468343234E-01 4.7806391607400767E-01 6.6443241507137471E-02 -1.3134699096638914E-02 1.5697360918152360E-02 1.6843308962418907E-01 3.8456419273770616E-02 -1.6296617776600908E-02 -6.2147571772366517E-02 -2.4538401741006971E-03 -6.7659939226168087E-02
34 -5.5843817988019939E-01 6.1132406274710990E-02 2.2719030137339069E-01 1.2801626301577588E-02 -1.1408660870301486E+00 2.7359249741576359E-03 2.4975436651039148E-01 -4.0797849790097518E-01 -6.9971607656880916E-02 9.6330966272898588E-01 -2.7084020682271642E-01 2.1999180902286405E-02 -3.1363923163584925E-02 -2.0973059008661588E-02 2.8715331021867609E-02 1.0980905894295553E-02 -8.5122292751235555E-03 9.7241860025165425E-02 -2.1957088259913087E-02 -8.1686003828380788E-03
35 -6.3070592912596102E-01 -2.8603543446663895E-02 2.4342763691051771E-02 8.8160671552706044E-02 -4.7628001838326639E-01 -5.2328716168446032E-03 -6.4832463550209579E-02 3.8173435919326792E-01 1.8496148485045633E-02 -1.0992141750563587E+00 8.3401517728248264E-01 5.7979689653016558E-02 -1.1427104770563849E-02 2.8264439474953891E-02 5.7123667247458973E-02 -6.0574758527910055E-02 3.2362350999182318E-02 -1.2679380284295882E-02 7.7661649558556950E-02 -1.4551887784683460E-02
36 1.8079843372682876E+00 -7.0810597884046630E-02 1.2269553111968602E-01 5.3603361553308124E-02 7.6118755677333927E-01 -2.9946974386061453E-01 -5.6899784410246512E-01 3.9381192225655051E+00 -3.5121122958325632E-02 4.3227385774730509E-01 1.0753704698858466E-01 -2.2845942261763053E-01 2.0257707646802897E-04 4.5545733234490945E-02 -1.6613945199432597E-02 4.8332215293466090E-02 1.0107361811587137E-01 5.1775304196011542E-04 -3.7552240533007659E-03 -3.1778006462053142E-03
37 7.9261248163005815E-01 -1.6061877830613935E-01 -2.3877652546179158E-03 -1.4440043738152275E-01 8.0499070640921866E-01 -5.1697547370855346E-01 -5.0384482615086594E-02 5.6722946410511510E-01 -1.4554261170695967E-02 -4.9048731596190964E-01 6.1469393362529756E-01 1.0642142441335702E-01 -1.3399133877493851E-02 3.7475234020130928E-02 1.9803120981225450E-01 3.8953874520351470E-02 2.8232275675070775E-02 -7.1904193980634371E-02 -8.8107102581219347E-03 -7.9272724602754585E-02
38 -4.6825643330093675E-01 1.4727899966502828E-01 1.0194946811303304E-01 -1.0690628119763626E-01 4.7977191517350604E-01 -1.4440699203189222E-01 -1.2071171461939237E-01 1.3011103377972688E+00 -7.4849905036016240E-01 -7.4994338553747142E-01 6.3052729707580107E-02 -8.4190589827681656E-02 2.4540281365559590E-02 -6.1376851414900839E-02 -4.6769639616161124E-03 5.5400965324739357E-02 -1.0233473546690117E-02 -2.6576699350752190E-02 -5.9926979120463741E-02 9.0131761656468301E-02
39 5.0330057003406969E-01 -2.1411546337474757E-01 -8.2733091866603964E-02 -1.2037177103479597E-01 6.5096683331084704E-01 -3.6342126341902647E-01 -6.1064282245715334E-02 4.3547519882822699E-01 -4.1547025190369083E-02 -3.2547833178880847E-01 -3.6286722943031235E-01 4.4575224616050357E-01 -3.5464520930402421E-02 1.6502827841940303E-03 1.6525210627048864E-01 2.6036614337013536E-04 -9.8433335157188107E-03 9.6881441443490601E-04 1.1917582870307463E-02 -1.8660025942486919E-02
40 9.9677168721737841E-01 1.4763837420163187E-01 -5.8956930227737139E-02 2.2835267272653847E-01 1.0287826387655601E+00 -6.9581267037351024E-01 -4.5031534796772646E-02 3.3505458766498769E-01 1.4959432774982802E-03 7.5678034828572460E-01 6.5269519156115896E-01 1.2864771890964830E-01 -7.6870759530971555E-02 1.3379536745733679E-02 -3.2191693008570399E-01 9.7875968410303799E-02 1.6623212941820412E-02 3.4289755267432609E-03 -2.6888956418718427E-02 -8.3274102803014612E-03
41 -1.0988343451347631E+00 -1.4395308306043136E-01 -3.0095165805455526E-01 8.4874780171999342E-01 -6.2800049949427805E-01 -2.3311947584492865E-01 7.4516501722094119E-02 -1.5582269489090705E+00 3.1276821396369843E-02 -4.6156401577280665E-01 -3.7464477171189059E-01 5.0317695710553123E-01 4.7988998083408436E-03 -1.1426943264041195E-01 2.0839152932225258E-01 -1.1370884150867822E-01 5.6096137917011304E-02 -3.4558083503066613E-02 1.5700459310251106E-02 1.2066546510627822E-02
42 -1.5598422256010940E+00 1.4641170256485392E-01 2.1250419578292171E-01 -1.7850090698893400E-02 -4.2765810720110670E-01 4.0161587969845897E-02 9.8538720931815837E-01 -6.5179315665517423E-01 -1.5630945306843871E-01 2.5768796703104222E+00 -5.8248929420943973E-01 -7.5502913071566584E-03 5.3090038762105218E-02 -3.9137409040853152E-02 1.7668370857543740E-02 2.6233413292033558E-02 1.1783544611398092E-02 -9.8147560420190960E-02 9.5113409329462856E-02 1.6273687025398749E-03
43 -6.1334321896124055E-01 1.8586551067130760E-01 -8.8568156339916146E-02 1.6228106796742853E-01 -1.6516887469816985E+00 6.6298016443545171E-01 3.8679858711968398E-02 -6.0164960697578618E-01 1.1555818844817002E-02 4.5412437682887813E-01 -8.0042543053812720E-01 -1.3280551401301624E-01 2.3797017631928853E-03 -2.3215614047359986E-02 -6.8483201946979599E-02 -3.1155101694534122E-02 3.6841768528286571E-02 1.0889544442599777E-02 1.0184469792319449E-02 2.6207249244077243E-02
44 2.3984318515626408E+00 -8.1507764905431568E-01 -3.2226637486661330E-01 -1.2768520950074541E-01 1.1233644333436057E+00 4.0637865713063111E-02 1.6196110059586374E-02 5.2401319723587259E-01 -2.2671331687411000E-01 8.5840216577698603E-01 -1.2868639932103758E+00 1.3308040317546148E+00 -5.7160509642998528E-02 -8.4272948181147611E-02 -8.5670032128265503E-02 -2.0863966646514297E-03 5.3946254702964463E-02 2.8610172030897182E-03 1.3291699876871838E-02 -5.8128681600357175E-02
45 4.4688725477381619E-01 -9.6891435099889400E-02 -9.5666312535363784E-02 -2.4829712188381889E-01 -3.7021277972516209E-01 6.1978763169499317E-02 -4.4453635431919693E-02 3.2493275492883550E-01 6.6415715706481387E-02 -9.3678276023809826E-01 3.7521166609898640E-02 1.1672171078304773E-01 4.1958600866887838E-03 3.7050849743951474E-02 -5.8556005310075659E-03 3.8376605536485420E-02 -2.6008280681875488E-02 -4.4542175684263198E-03 2.0515694265474914E-02 1.7537618019751622E-01
46 -1.1520567487489357E+00 -2.0087041921774648E-01 5.5292644992615797E-02 1.2942997369790071E-01 -6.6751653302976721E-01 2.4334101476781861E-03 -1.1466183972666030E-01 5.8765737064281809E-01 1.2794479529969786E-02 -2.0676760491283779E+00 1.5509679868459039E+00 -8.5192960458484679E-02 -7.2432465868548207E-02 2.0456813983870340E-02 1.7381363700104197E-01 -6.3108692262807423E-02 -1.4439665157493016E-03 -1.6266937133291526E-02 2.3438307652291109E-02 -1.4805504302954806E-02
47 -5.8959061530015611E-01 1.0506739393561119E-01 -2.8319703404935337E-01 -9.9066307301129655E-02 -5.1537239892249354E-01 -2.2347614951323602E-01 -1.0179698404996181E-01 8.1257189728415147E-01 -1.4048221144954440E-01 -1.9594602498261948E+00 1.7597098146717859E-02 -5.5823332001281228E-02 -1.3650651972462451E-02 -7.7963713190082079E-02 1.3236839082957818E-02 9.4190723364419582E-02 1.4593528805763620E-02 6.3741948804839924E-02 4.1045495260471881E-02 5.7719162351595556E-02
48 -1.3393146217274170E+00 -5.0761755565838514E-02 2.4590862248639017E-02 1.7759529059802207E-01 -4.5655984736188432E-01 4.3012077910772856E-02 8.4186973278229993E-02 8.3154016196354474E-01 2.1246420024742974E-02 4.4266366256298040E-01 2.0225833788172465E+00 -1.0012634703929420E-01 2.6355330951831558E-02 7.5836872675858966E-04 1.3629951303913881E-01 -5.5916720186688883E-03 -7.9542224247313373E-02 1.2085450038965852E-01 -2.9984633810612296E-02 -5.5093730534041568E-02
49 -2.3940404477103754E+00 2.4294299713176953E-01 1.8702207716619390E-01 -4.6798523069934490E-02 -9.5323433686772363E-01 6.8409585247624707E-02 9.2011234557039967E-02 5.8202709217103432E-01 5.2835010635486235E-02 -3.3926276004221640E+00 9.5637073752224555E-01 5.7899081936999448E-02 4.1044257485893607E-03 5.5221120384033345E-02 4.9506804037978462E-02 6.2097234443640834E-02 3.0771886820807247E-02 -5.1504914041940401E-02 2.9111597684812775E-02 1.3324005872242270E-03
50 7.5568864971708660E-01 -2.0875940467570286E-01 5.3902211006924321E-02 -1.6438357139759815E-01 1.9308904117081092E+00 -8.7064912125978955E-01 -4.4790339457280393E-02 7.1331918276540573E-01 -1.1911369247638842E-03 -5.2639610979961615E-01 9.3927128719667541E-01 1.2747972363187057E-01 -2.0137341646212118E-02 5.4996495613757572E-02 9.2315750119937354E-02 5.9388506878293224E-02 7.8805850449304403E-03 -3.7421620942758786E-03 -1.0117759539200813E-03 -1.0424952399115413E-01
51 -1.3450286791923536E+00 5.4773431950439676E-02 -9.2638529399368660E-02 -3.5897773165829330E-02 -5.8784441636462803E-01 2.2213437596319324E-01 4.1367258566904452E-01 -2.9303123719034931E+00 2.2894473380860200E-02 -3.3814077369742884E-01 -7.9947809195333661E-02 1.6166452946412685E-01 -6.5602549085645603E-05 -4.0831888829198207E-02 2.8033771985697842E-02 -3.4391811239283698E-02 -4.9409637718414681E-02 -3.1662758621245476E-05 3.1962617218466555E-03 1.1896243114690685E-02
52 7.2379795464116492E-01 -4.8633404421039826E-02 -4.2287957924082237E-01 2.8847828707310752E-01 -5.6930595897341718E-01 2.7425399934537348E-01 -1.8067883922938335E-01 -5.3792512795598069E-01 -6.4970042935724739E-02 -4.0673916664846432E+00 -1.7119176756580881E-02 3.4377655765290316E-01 -1.2395668852851982E-01 5.3620702221400929E-01 -2.7850893399770673E-02 1.5152732619311365E-01 4.4589991609375792E-03 -5.9562800146412138E-02 2.9848662965031216E-03 1.3034437203669862E+00
53 -8.1202104633960381E-01 -1.1900273162266059E-01 1.1858902501008015E-01 1.4624133959090913E-01 -1.1624179613899244E+00 -6.1905022239312907E-02 -1.6482389632330391E-01 5.9177126098772714E-01 -1.2802943121250391E-02 -1.5735650691992302E+00 1.6313977639396757E+00 -7.4023792952471842E-02 -8.5134722406604510E-03 3.3972696198238707E-02 6.1864287517152547E-02 -7.2164672964811244E-02 1.7455233914439516E-03 -7.0195967805578963E-02 -5.5493357499134449E-02 -1.4270725629690253E-03
54 -8.2915411094305425E-01 -1.0095059164561043E-01 -2.1533015541317876E-01 5.9100767526697895E-01 -4.6928100156295938E-01 -1.6437535614866366E-01 5.4103572695613049E-02 -1.1262761699998061E+00 8.9180637149312326E-03 -3.3992679751939120E-01 -2.6101711229224700E-01 3.6183528211876259E-01 2.5956305840625957E-02 -3.3982102227136227E-02 1.6625919355064842E-01 -5.4424485237434511E-02 3.9431904088225826E-02 -3.0527634382774383E-02 4.3525454495980054E-02 4.6739029327733550E-02
55 -8.6938766959181391E-01 -6.8100975011408615E-01 -2.3569125573954562E-03 -2.4082605401739923E-01 1.4174552626483123E+00 -5.6567574548774469E-01 -2.1948892850756751E-02 5.9708292031378518E-01 9.0277172835065311E-02 -4.4928160557488994E-01 -1.3164960578911280E+00 -4.4266814380197023E-01 -2.8482644307136325E-02 3.2249735877720481E-02 -2.2445037459138739E-01 -8.4070944082255943E-03 -3.9375450551359409E-02 -3.9973852416172054E-03 -7.7169085761902151E-03 -2.7666519025763999E-02
56 -6.2316809144948604E-01 3.5293216483474754E-01 2.7004929646639059E-01 -4.8880024681354189E-01 -3.6159598432743090E-01 3.5920829409472643E-01 -2.2400497762377536E-01 2.0553530079068314E+00 -1.1992294596372839E+00 -1.5092356178678101E+00 2.1484583957378392E-01 7.2989926871010385E-02 7.9120044190021110E-02 -3.6911605796879771E-02 -3.1653001589827826E-02 -6.9263186851296205E-02 3.2376081214916780E-02 -4.4207465698643908E-02 -1.1053393989338750E-01 -1.3718568508523202E-01
57 4.8790077782625196E-01 -3.4736543307575440E-01 -5.4225650590307213E-02 6.8115740516075357E-02 1.1901351935348237E+00 -2.8952689632999951E-01 -1.0573706800935481E+00 -4.0105022378472457E+00 -3.7271404341968333E-04 5.5409571450273853E-01 -3.2076899447713865E-02 3.6947226397716915E-02 1.2715002134775041E-02 3.5752484266540546E-03 -3.0609327105833171E-02 -4.5882822520347630E-02 -3.9860200377741073E-02 3.0877215548816539E-03 7.8361757579962516E-03 2.4594006480781121E-02
58 -9.4514206475499940E-01 2.1957890505339284E-01 -8.3801125001939231E-02 1.7622303917364929E-01 -2.3172664444293254E+00 1.1572270869805470E+00 6.8462713520252655E-02 -9.3584176413284448E-01 -5.2051679583537791E-02 4.3955559461586502E-01 -1.1347570929855246E+00 -1.3648340087750654E-01 5.1367225845298237E-02 -2.3563054871334813E-02 -1.3217851123724444E-01 -1.0835536675173266E-01 -2.9142204732346265E-02 -2.4428729920703808E-02 -4.4809593961967556E-02 2.0358688586656826E-01
59 8.2602446109012595E-01 1.1517792170708491E-01 2.2652679637778356E-01 -6.2645531469868243E-01 4.6673874381104924E-01 1.7587579714446028E-01 -5.4967890397779780E-02 1.1637300833992814E+00 -2.6431365614235463E-02 3.3715529202271871E-01 2.7759255734922034E-01 -3.7263667933937672E-01 -4.0219763573981129E-03 8.6016877771124184E-02 -1.5524401782719444E-01 8.5943305822290136E-02 -3.7770295886982407E-02 2.5249012995904555E-02 -1.3577846727630244E-02 -8.6927558269434563E-03
60 -3.8756345878552251E-01 2.0158430342037251E-01 3.2803057455625485E-02 -4.0235951102869975E-02 -6.0189556043112746E-01 1.9094264314687073E-01 4.1372717391655628E-01 -3.8030525779367630E+00 -6.0075289789688008E-04 -3.5792616965474949E-01 3.9640090727426497E-02 -1.1806483677213944E-02 -2.3930822758028825E-04 1.2233940853611080E-03 2.5660047575586226E-02 3.0251189759547215E-02 1.5788550778247742E-02 -1.7243082290726225E-03 -3.6476029545091750E-03 6.2578920752291885E-06
61 1.0021548335379176E+00 1.3973691626913340E-01 2.7482833089017478E-01 -7.6003224019815463E-01 5.6625985081890218E-01 2.1337719221782744E-01 -6.6688505784463836E-02 1.4118682713983548E+00 -3.2067235360508151E-02 4.0904576252807845E-01 3.3678266952837838E-01 -4.5209272478521689E-01 -4.8795686287817688E-03 1.0435796260852739E-01 -1.8834616911713303E-01 1.0426870316451585E-01 -4.5823926978315985E-02 3.0632773734707401E-02 -1.6473004575644160E-02 -1.0546282439674372E-02
62 -4.9105029457695598E-01 7.1194084880072039E-01 3.0954461369586080E-02 -7.4310990562379303E-02 -1.3047322464701305E+00 3.6195034654579955E-01 8.5696988195517976E-01 -1.3190822578856663E+01 -6.7004525401342100E-05 3.3402261935721800E-01 8.4867534143017023E-02 -6.4544008908787153E-03 -4.7455920532070347E-04 9.9501678705956150E-05 4.1651523007772723E-02 1.2204917790876527E-01 8.7715904471816590E-03 -6.7886696870850412E-04 4.6869591785325404E-03 8.3676521919975222E-06
63 -3.9139624059967143E-01 1.1855782868082224E-01 2.2700452284160649E-04 -2.6397236410949394E-02 -6.7810568319283548E-01 6.3219535935714366E-01 -5.6263027193910542E-01 -7.1606346003203536E-01 -1.2870381462227970E-03 -7.4228161945064386E-01 7.9907964241505952E-02 3.8795757807368889E-03 -6.9831630147820865E-04 9.8732733910318333E-04 -1.3245066200596340E-02 -7.6853740716480243E-03 2.4827816920360693E-02 -3.2478781756796701E-03 -1.3767421614608998E-02 1.1873096481262503E-05
64 9.3429653492245934E-01 -1.4919787433466551E-02 1.9833542115433506E-01 3.5858460650891955E-01 4.5107264986641771E-01 -4.6202570838074158E-01 -2.1244938855452322E-01 -3.7005483132001632E-01 2.4691085314292554E-03 2.9827224139573301E+00 -1.2374923592279587E+00 -3.3378970434117566E-01 4.6574244731831201E-02 1.9215360267974373E-02 -1.2351146757561481E-01 2.3182809618487243E-01 -1.3902242077119610E-02 -7.2562689952073382E-03 -1.2513408409292076E-01 -2.5393333768765392E-02
65 1.0188940005134492E+00 3.7251142022750094E-02 -1.6085652379432347E-01 -1.6955627811353938E-01 1.9416666942432494E+00 -6.3013943267763800E-02 -1.6128181992923485E+00 8.5893654175641576E-01 -7.8861458592673059E-02 7.1518550865975650E-01 -6.2770849114789684E-01 -1.4946057340124064E-01 -1.1503455024438796E-02 -3.6204033206969194E-03 -1.0951465807008497E-01 -4.2845614750986862E-03 8.4122632049009761E-03 7.5135302966041859E-02 -1.7226050296935327E-03 -1.6159800600359871E-02
66 -1.8384812443287988E+00 2.2287651411735007E-01 1.8292758393404415E-01 1.0332918497143326E+00 -1.1489744418439491E+00 1.1324968717836283E-01 4.2110677347306619E-01 -8.6748648241439652E-01 1.8038684701799801E-01 1.0302392905183400E+00 -5.9031206119426249E-01 -2.4978238506965722E-01 -2.4028639700069869E-03 7.6031882311382207E-02 2.2414001518796457E-02 5.0782089992485960E-03 6.1181219528763431E-02 -2.4239991215151038E-02 -1.6859470633833567E-02 -9.1392388177481104E-02
67 -1.2417153941588066E+00 1.1707587217111765E-01 6.8411906811602835E-02 8.8181059430409170E-01 -6.2507411286145509E-01 1.0549078922428420E-01 2.7154642954550900E-01 -6.1650312764714954E-01 8.1480319920322522E-02 5.9691954041475070E-01 -3.5709581632183196E-01 -3.5572710980894305E-03 -2.2215515105549977E-02 4.1358824115726563E-02 -1.0809599785109662E-01 -1.9051290313603472E-02 3.0955941457466783E-03 5.3572911756255726E-02 -1.7059938735620058E-02 -8.0148983088234108E-03
68 4.3296391328899986E-01 6.3451419895685063E-02 -6.3230834438271363E-02 -7.7974854173206987E-02 6.1979308505548147E-01 3.3007322657208647E-02 8.7882942784998544E-02 -3.1552827612556456E-01 6.8264392658053917E-03 8.3901383251887074E-01 -8.6984981878270395E-01 3.9468966004845500E-02 4.5393235478431767E-03 -1.8114002780189237E-02 -3.2985603189723427E-02 3.8477696297293251E-02 -9.3070080104917677E-04 3.7427996546657759E-02 2.9588668092627605E-02 7.6090505805932718E-04
69 9.9647182764091380E-01 3.7767570459069651E-02 -1.8296000843000169E-02 -1.3213378016763538E-01 3.3968794049404971E-01 -3.2001684437000286E-02 -6.2636475227841021E-02 -6.1867938384777554E-01 -1.5807681518160147E-02 -3.2934895334408493E-01 -1.5048348784893268E+00 7.4495628144915546E-02 -1.9608794211310985E-02 -5.6423864782732618E-04 -1.0140905106337263E-01 4.1602947848243315E-03 5.9180706522948288E-02 -8.9917710841226517E-02 2.2309054474345492E-02 4.0990630182178189E-02
70 -1.9042231454231808E+00 9.8217243685612771E-02 -3.2981510411862397E-02 -1.1641680305982198E-01 -4.5144946901854049E-01 -5.0227439384790531E-02 1.7393937729020270E-01 -1.3996332722785867E+00 -3.4755945219109498E-02 -5.2900464494623411E-01 3.3152417056299104E+00 -1.1981997388386423E-01 -4.5985192540835128E-02 -1.5978470713831341E-03 4.9183046897418196E-02 -4.8056397001676162E-03 1.7098300953127005E-03 -1.1526109197510802E-01 1.5116128130519770E-02 -3.4531186866431821E-02
