1 1 -9.4846761581281261E-02 6.0568065840256188E-02 2.1608385219048270E-02 7.8310345282732660E-02 -3.5266774135751688E-02 1.4199423399675751E-01
2 1 -2.3752082839691890E-01 1.8758333812583730E-01 3.9846203419331719E-02 1.2684334838912609E-01 -8.8032932550102500E-02 8.6117790581541592E-02
3 1 2.0337691773545971E-01 -1.2889376239010950E-01 -5.9708480675830372E-02 -1.1893758074167390E-01 7.9669113672930128E-02 -1.1290747153916210E-01
4 1 1.1970939687519611E-01 -9.8087078298206107E-02 4.9224946179729492E-03 -7.4887199339331009E-02 3.1282409293850531E-02 8.8833353963269746E-01
5 1 -6.9717650398592637E-02 1.9889637425525401E-02 1.9306802676348399E-02 -2.2361936479729819E-01 1.6999838914279750E-01 2.3501186052271311E-01
6 1 -7.1178474035629782E-02 3.7827571716742663E-02 1.1547293774623270E-02 6.5589934284287513E-02 -3.3000798404905711E-02 2.1509965914865989E-01
7 3 -9.9923250183697548E-02 4.0813423189495088E-02 4.0070671151915059E-02 6.8760104162217978E-02 -4.1060475390430742E-02 1.4286539752284089E-01
8 2 -1.3205303458848369E-01 1.1057223855575200E-01 1.1173740322270070E-02 -6.6686155000712261E-02 3.3053119854511800E-02 -1.6811631412475120E-01
9 2 1.5456552265990439E-01 -7.1481308076086743E-03 -1.2746693072106430E-01 6.5384445621130952E-02 -3.2085120778946860E-02 5.3710372591073086E-01
10 1 1.1227082893287189E-01 -5.5124993209680229E-02 -2.9912648351484990E-02 -2.7234490932384892E-01 2.4905919531468899E-02 1.9875715337478900E-01
11 3 -7.4471645728432359E-02 2.5851772653528761E-02 2.4075682458322319E-02 -1.0223554806442410E-01 3.3202622792172620E-02 -2.1115043622914151E-01
12 3 -3.3584752740595208E-01 2.5926603710565987E-01 1.0942271334162149E-02 1.5458952733961129E-01 -2.3629359749757179E-02 1.1983656339181770E-01
13 2 1.4975168971883651E-01 -2.5760179169895699E-02 -9.5575713223503583E-02 1.0262380486006230E-01 -1.4727110644515290E-02 2.7871148339193340E+01
14 3 1.3340640108728999E-01 -1.0922818648886250E-01 -1.7198434187914349E-02 -7.9230492780069717E-02 5.0132794995571099E-02 -2.7038695735225038E-01
15 3 1.0633720613295930E-01 -4.5514387048477302E-02 -4.3932850787791571E-02 -1.7319031905379020E-01 2.6355038259677721E-02 -1.3136009378854679E-01
16 2 -1.9674283943034179E-01 1.8085191562891520E-01 6.9655935474062739E-03 7.1520658178886837E-02 -3.8393403082825329E-02 -2.9470212436644538E-01
17 2 -1.0939579289163760E-01 8.2691964288851977E-02 1.3357015615409791E-02 -6.7683810568530775E-02 3.2190876365994450E-02 2.7042255246435343E-01
18 2 -3.0214101468316090E-01 1.3388681904370080E-02 1.3236600914751170E-01 1.0249634781532850E-01 -4.2477647116843383E-02 2.1184998685513459E-01
19 2 1.5767339392980301E-01 -1.1453864732271020E-01 -2.7873508663061111E-02 9.7590121244555808E-02 -5.3791839067692887E-02 -2.3512141418842411E-01
20 2 1.2432808740529200E+00 -1.7572509872160350E-03 -4.3913636607094859E-02 -8.6426145250944428E-02 2.9746215178014429E-02 3.3408326273504613E-01
21 1 -7.4731928171867190E-02 1.4955722926452629E-02 4.2797002567645667E-02 1.0625777267018290E-01 -3.3246673545985483E-02 1.5440679560510781E-01
22 2 7.5780388573245608E-02 -4.0637849417714499E-02 -3.5303158385983829E-02 5.9250660491240219E-02 -1.0280473711929410E-02 1.4804089814499739E+00
23 2 1.2723157111897401E-01 -5.8319076094654039E-02 -3.4323599003078298E-02 9.5397588088733262E-02 -4.5410232597058633E-02 3.8016898536848492E-01
24 1 8.9235019687878558E-02 -6.7262310983829232E-02 -8.2664576087616570E-03 -6.1049934256384282E-02 2.6875121623265691E-02 4.7539919825073468E-01
25 3 -1.9884858878567591E-01 1.0503881931834010E-01 1.1059701890352830E-02 1.2549406772138369E-01 -1.9139209266834111E-02 8.6451978592244641E-02
26 2 8.1682207117329750E-02 -2.1788014365655070E-02 -2.3199719138868390E-02 -1.1714112951976430E-01 2.2557210578687210E-02 2.7087735092143822E-01
27 2 1.9104140072685591E-01 -1.3338877520286729E-01 -3.1405066965517717E-02 1.1806047871346630E-01 -6.3515115686255216E-02 6.6543411615638171E-01
28 2 1.5027810515291520E-01 -1.2713596540233421E-01 -1.3641975816570749E-02 -7.5587212556877226E-02 3.5967516477784199E-02 4.9577226359955251E-01
29 1 -7.0144146684867986E-02 2.3133034383159740E-02 1.8968172257357530E-02 -1.6632579101730360E-01 3.5042481292368963E-02 -2.6533614464953570E-01
30 1 -9.3257473376415392E-02 3.6212248598332379E-02 2.5782323622706761E-02 -2.7175089057712470E-01 7.3159070709414201E-02 4.1866517238355050E-01
31 1 -2.0290668849819371E-01 6.0558013414963863E-02 3.7859401482801348E-02 2.1527643642477681E-01 -4.4833025773611170E-03 9.5612530537631565E-02
32 3 -2.3074747627543349E-01 1.3096667052410529E-01 -7.3565677061919986E-03 1.4184589862732810E-01 -4.8761140151564308E-03 -2.0499763094046899E-01
33 1 -1.2832133618900721E-01 2.9296058937306808E-02 5.3323670384911682E-02 -1.9927579741562179E-01 4.8222636379372033E-03 1.2267486739016760E-01
34 2 -1.1811755122671730E-01 6.3089326073750784E-02 3.8545748656936642E-02 9.2561011964046661E-02 -3.3444991563125262E-02 1.2228923001443339E+00
35 2 -3.5028302813143442E-01 3.1585965919347792E-01 2.7114426021759910E-02 1.3620168589104581E-01 -9.6622531288982988E-02 -2.1258667461579789E-01
36 2 -8.4193407331676962E-02 3.2412634331964167E-02 2.4869266098320839E-02 7.0549107961601007E-02 -2.4515367545402011E-02 6.9990767708907409E-01
37 2 -6.1663213215861057E-01 4.4973537761610399E-03 6.0385058754465382E-01 1.0553703074700080E-01 -5.5875868364446572E-02 -1.3767041781065770E-01
38 2 1.1701032267200361E-01 -7.5296512951533334E-02 -1.8792110560299360E-02 1.3437829988861599E-01 -6.5682472411816600E-02 -6.3804984269057841E-01
39 1 7.4796476505769496E-02 1.0353488063054009E-02 -5.1482011805240993E-02 -5.4506002135857712E-01 3.8528797402379289E-01 -3.1430879210912138E-01
40 2 -2.1567294520509439E-01 6.2522273563529879E-02 1.4478209113337001E-01 4.7173282115657927E-01 -4.6876709037554298E-01 -1.0734811925445220E-01
41 2 -2.1962850067281789E-01 8.1911835741848404E-02 6.7921064899632705E-02 2.0931294901363301E-01 -1.6760110044345131E-01 -1.4017399309928971E-01
42 1 -2.0676482193428661E-01 7.3330524565244901E-02 3.8022285938168587E-02 -3.2492907497643009E-01 1.3368078333543639E-02 1.7668362660764830E-01
43 2 -5.3390884987586484E-01 3.9998303792113182E-01 1.2544151311797089E-01 -2.7008432466464288E-01 2.3220585384693310E-01 1.4575220387879870E-01
44 3 -2.0082199300055970E-01 2.5813546013675789E-02 1.4481333865730059E-01 9.7285325904457876E-02 -5.9160571981158282E-02 -2.6372178078517738E-01
45 2 -3.3847979670885348E-01 5.7281615173852218E-02 6.8935075339341692E-02 -1.6761819534813180E-01 3.9944595597467457E-02 -3.0593648696965070E-01
46 3 -2.3508561347842691E-01 1.1309078154796399E-01 1.1352666050550540E-01 1.9846118346837990E-01 -9.5934482800630341E-02 -1.2211329578791660E-01
47 1 4.9092090714506181E-01 -1.3533799368457670E-02 -4.6164288177340840E-01 -1.2437151747588680E-01 8.5994864046567782E-02 1.6465864416262069E-01
48 1 8.1796912882965311E-02 -2.0996885674857260E-02 -2.4481101861811860E-02 -1.2416115765035490E-01 6.0722326699584071E-02 1.0143261068675040E+00
49 3 -1.9438235289185429E-01 1.1724694149406260E-01 6.4762857870762566E-02 2.1453423437358529E-01 -1.4781614034578969E-01 -1.2835168614962181E-01
50 2 -2.2888526614415211E-01 2.1387567537301400E-01 8.0073187823510254E-03 7.5166483822017544E-02 -3.2619498674258902E-02 1.1065828795326260E+00
51 2 7.2950175344319379E-01 -2.0882118586940230E-03 -6.8868741579933584E-02 -9.3862988986040841E-02 2.0694478481171358E-02 6.8765042570254986E-01
52 1 -1.3841111742359280E-01 7.9979921627642087E-02 3.1441967316327903E-02 -1.5792675518579710E-01 5.9235313515248821E-02 3.3908176053301609E-01
53 2 -2.4087240965379239E-01 9.4372541008682864E-02 1.1062469238743010E-01 -2.6963595015844838E-01 2.2663910935318110E-01 3.0261657140216752E-01
54 2 3.2556065848165378E-01 -5.6156707426941080E-02 -5.5576485746017819E-02 -2.3823732312778070E-01 1.7267602927052020E-01 -2.8578258999074169E-01
55 1 -8.9346539770751909E-02 2.3557902215703780E-02 2.4625845170471269E-02 -1.8432780835165380E-01 3.2877598332574837E-02 1.7189893038999560E+00
56 2 1.4070032041654229E-01 -1.2087025985102109E-01 -3.7684309926375510E-02 6.8892336693557446E-02 -1.9341489555302821E-02 2.3837723944877891E+00
57 2 -1.5634006930976929E-01 3.6961057271773158E-02 4.9872214311731347E-02 1.1943809057489641E-01 -4.2551515624780593E-02 3.5860002041461971E+00
58 2 9.7706394637853439E-02 -8.9212689112925093E-04 -3.2358912004209310E-02 1.4591101510581819E-01 -3.6228182593987600E-02 1.5354237629289491E+00
59 2 -1.2821213809448609E-01 3.4210580260834393E-02 6.4841883590598573E-02 -1.6797270819241500E-01 3.8440529610762379E-02 3.3100382554462748E-01
60 2 -3.0755781416961769E-01 2.9140309881786142E-01 1.2141909117654261E-02 8.9023554730478932E-02 -5.0214543853180728E-02 5.0627320146129695E-01
61 2 -2.0074036912744511E-01 1.4634146957244931E-01 3.8532419500985321E-02 2.4042714584094169E-01 -2.3879300259228811E-01 6.4770496003161293E-01
62 3 -3.7315046441298549E-01 1.6033160000963231E-01 1.9590852137103570E-01 2.7489288578146298E-01 -1.5302975815795339E-01 -1.6671982179283590E-01
63 1 -1.4182637503984311E-01 1.0689916727490779E-01 -2.8963954945893291E-03 1.3009469612348820E-01 -6.1600369614401129E-02 1.6368591214597901E+00
64 2 -5.0717668460668208E-01 4.8225752200744842E-01 2.5121394093856150E-02 -1.3144221723041921E-01 7.6909666282867550E-02 9.8635685614301183E-01
65 2 -2.1011698227371681E-01 2.2507545893919220E-02 1.3222049328441959E-01 -1.2730550110065331E-01 5.4364276412593823E-02 9.3601014293602569E-01
66 2 7.7680249609191121E-02 -2.0016781757916172E-02 -3.3417030797478549E-02 6.4728025603667486E-02 -2.9862160544005669E-02 3.7113394971490432E-01
67 3 -1.8665168905434310E-01 1.6343709089449290E-01 2.0070103317920931E-02 9.0600901641485307E-02 -6.5929938269762692E-02 -4.9041643483217878E-01
68 1 8.5131240111376752E-02 -3.4687783695172662E-02 -3.6739979207487559E-03 -9.6710536909105749E-02 5.9968069223470997E-02 2.5436002174032448E+00
69 1 -8.6569997724361886E-02 3.7625981002380703E-02 2.5433882937135759E-02 -9.8102620118065781E-02 4.2107599035901951E-02 3.6914372660218098E-01
70 2 4.4956302769664058E-01 -5.5350563408209973E-03 -3.2630856486476861E-01 -9.6280254014401878E-02 4.9444861482951567E-02 2.7522161014992658E-01
71 2 9.4555569287257737E-02 -5.0320835942650161E-02 -5.9785192532092087E-02 7.3445316750992223E-02 -2.2641341628006559E-02 5.4228721798081390E+00
72 1 -7.6342182570510106E-02 2.1382571653160830E-02 1.7614090485125081E-02 -3.0532143318162358E-01 -5.9686198888107382E-02 8.5585336445818394E-01
73 2 9.7345497639724804E-02 -3.3654784642991702E-02 -3.2627658513901432E-02 2.7508403482135180E-01 -1.1096383430391341E-01 4.2295035712443751E-01
74 2 8.5353754209275834E-01 -1.9626167138453360E-02 -3.6373788289710267E-02 1.4300467925291860E-01 -1.0971982407762679E-02 2.6822816739337102E-01
75 2 -2.1129293665911980E-01 1.7387976016926829E-01 1.3939968430498659E-01 1.0204984058285520E-01 -5.1381291026408671E-03 5.0624271258301086E+00
76 2 -1.4349042350746860E-01 1.0863414670987590E-02 5.4417333963655230E-02 -8.9850933772625943E-02 5.4006653691092421E-02 9.0716699688259084E+00
77 2 2.3609870023635509E+00 -4.2027328467256209E-03 -2.6955289066450259E-02 -1.4275553078539741E-01 3.7272140232676759E-03 3.2097673304411578E-01
78 1 -9.9157425864500784E-02 -1.0314748242021920E-02 6.2157599004173468E-02 -1.4138312239412770E-01 7.4050085477015679E-02 4.4311715008299363E-01
79 2 -4.8696520313693481E-01 1.1361699267313610E-01 3.6610196773592740E-01 5.0792807574831111E-01 -4.8894763641749173E-01 -1.3258918638493131E-01
80 2 6.5873861694587543E-01 -6.1434916514832412E-02 -3.6009342059915517E-02 -3.4374296097153340E-01 2.5559550054073538E-01 3.5547267357860401E-01
81 2 -2.8258217873126229E-01 1.7949188418044149E-02 3.0537026343609031E-01 1.5693063089143899E-01 -5.4701642582993461E-02 2.1074866090151390E+00
82 1 1.7098472140573440E-01 -1.0886045198758430E-02 -1.2195376880641380E-01 -1.9095466663777749E-01 4.6938796397034070E-02 4.9111199439504027E-01
83 1 -3.2673451732267222E-01 2.7878933548326191E-03 3.0857662729817381E-01 -5.3872450479694278E-01 1.2267953395033509E-02 1.9960504777089411E-01
84 2 -3.7776007480474932E-01 2.1448140272544600E-01 1.5316323785513269E-01 -5.8805027152103151E-01 5.7227955658154661E-01 2.9097412751838542E-01
85 2 -2.7833800246882567E-01 4.2491666314276224E-03 3.5106074356900158E-01 7.5392653980951227E-02 -4.1692778843507819E-02 3.8080571884220631E+00
86 2 -3.7036990151785920E-01 1.0618344197666781E-01 2.6344852408791980E-01 -6.0077735560544443E-01 5.6644715602485442E-02 1.7441558593784010E-01
87 1 2.1216996560950829E-01 -7.3547808224665737E-02 -1.0062527393138659E-01 -3.9422959739023811E-01 -6.2704297459342445E-02 8.3747480434782240E-01
88 2 -3.1061520442083312E-01 2.7128006517476649E-01 1.6082890786101402E-02 1.2876890267531110E-01 -7.8011274880415024E-02 2.2562865592465369E+00
89 2 -1.6640082732067910E-01 -3.6725036844491667E-02 2.6360070463226509E-02 -2.6141365382245912E-01 -1.6245553780190330E-01 -9.4605926192958112E-01
90 2 -3.1864238267376882E-01 5.3583090529981420E-02 -1.1025790765098099E-01 1.3856617008652891E-01 6.5412473582130232E-02 7.8786315918998895E-01
91 1 -1.0755422499611750E-01 2.8749993547540448E-02 -5.7023952439160296E-03 -6.1415241436747481E-01 -2.7888196204656918E-01 1.2995638482146279E+00
92 1 -1.0405159348394651E-01 1.8982101042398541E-02 7.9760491545667750E-03 -1.9540102094221190E+00 1.8730876940811789E+00 9.9671419465784628E-01
93 1 1.1311256602620110E+00 1.4504303950526850E-02 -1.0693181485218450E+00 2.1603212725485191E-01 -7.0221635719468472E-03 3.3321994981394470E-01
94 1 -2.1656603038274849E-01 1.9051720043852849E-01 1.1472790420415230E-02 -1.7199575295144340E-01 5.8101728699762822E-02 1.0589495184753459E+00
95 2 -6.2254746307760356E-01 1.0960754591337789E-02 5.9324609786123961E-01 -1.1232958516935150E-01 8.1106585046748572E-02 4.6928654395612068E-01
96 2 -2.2218994150819071E-01 2.6861423824395841E-01 -3.1200886680506879E-01 2.2833105973309520E-01 -3.4940218262576872E-01 2.9128188122375409E+00
97 2 5.3064650937524824E+00 -1.7768728967740330E-02 -2.1474947578896200E-02 1.0311635472365370E-01 -2.5101327749854810E-02 4.6325777171790511E-01
98 2 1.4574691968283471E-01 -1.0846831617723340E-01 -4.2047557934004061E-02 9.0195773484395031E-02 -1.7817475914657259E-02 1.3370750072038360E+01
99 2 2.6980868917829320E-01 -2.8984531600840729E-02 -1.9792137766352691E-01 1.5218264654182070E-01 5.8195881818929901E-02 7.2984494002163496E+00
100 2 1.2271497977030750E+00 -1.0664827280742291E-02 -2.6162127277936442E-01 -1.8354627710150351E-01 5.3770853605869598E-03 6.0952868017790518E-01
101 2 1.5863091611380893E+00 -3.9958415319092211E-01 1.5826599112671419E-01 -5.6742068237882792E-01 -7.2406809212872097E-02 4.1908524909910555E-01
102 2 6.5005001174727772E-01 8.2826514346156455E-02 -2.6006259426664302E-01 -1.4344124115958809E-01 9.1370059652997410E-02 5.6882305875308745E+00
103 2 5.5517967858158890E-01 -4.4181683625045753E-01 2.3866911926818465E-01 2.1065342645439966E-01 -1.8523138825016439E-02 4.1653640163211936E+00
104 1 -5.6979131731994626E-01 2.8921544449408659E-01 2.6072484139890406E-01 2.3457554822698531E-01 -2.2328559701656159E-01 6.1933844179239506E-01
105 3 -3.2821795518938829E-01 5.2610723805682247E-01 -2.9734468821179322E-02 4.6437029601482699E-01 8.1080710184518387E-02 -6.0668711053369329E-01
